# Pulseq sequence format
# Created by JEMRIS 2.8.1

[DEFINITIONS]
Delays 0 0 0
Recon_Mode 2
Scan_ID 2959
Num_Blocks 1536

# Format of blocks:
#  #  D RF  GX  GY  GZ ADC CTRL
[BLOCKS]
   1  0  1   0   0   1  0  0
   2  1  0   0   0   0  0  0
   3  0  0   2   3   4  0  0
   4  0  0   5   0   0  1  0
   5  0  0   6   7   8  0  0
   6  2  0   0   0   0  0  0
   7  0  1   0   0   1  0  0
   8  1  0   0   0   0  0  0
   9  0  0   2   9   4  0  0
  10  0  0   5   0   0  1  0
  11  0  0   6  10   8  0  0
  12  2  0   0   0   0  0  0
  13  0  1   0   0   1  0  0
  14  1  0   0   0   0  0  0
  15  0  0   2  11   4  0  0
  16  0  0   5   0   0  1  0
  17  0  0   6  12   8  0  0
  18  2  0   0   0   0  0  0
  19  0  1   0   0   1  0  0
  20  1  0   0   0   0  0  0
  21  0  0   2  13   4  0  0
  22  0  0   5   0   0  1  0
  23  0  0   6  14   8  0  0
  24  2  0   0   0   0  0  0
  25  0  1   0   0   1  0  0
  26  1  0   0   0   0  0  0
  27  0  0   2  15   4  0  0
  28  0  0   5   0   0  1  0
  29  0  0   6  16   8  0  0
  30  2  0   0   0   0  0  0
  31  0  1   0   0   1  0  0
  32  1  0   0   0   0  0  0
  33  0  0   2  17   4  0  0
  34  0  0   5   0   0  1  0
  35  0  0   6  18   8  0  0
  36  2  0   0   0   0  0  0
  37  0  1   0   0   1  0  0
  38  1  0   0   0   0  0  0
  39  0  0   2  19   4  0  0
  40  0  0   5   0   0  1  0
  41  0  0   6  20   8  0  0
  42  2  0   0   0   0  0  0
  43  0  1   0   0   1  0  0
  44  1  0   0   0   0  0  0
  45  0  0   2  21   4  0  0
  46  0  0   5   0   0  1  0
  47  0  0   6  22   8  0  0
  48  2  0   0   0   0  0  0
  49  0  1   0   0   1  0  0
  50  1  0   0   0   0  0  0
  51  0  0   2  23   4  0  0
  52  0  0   5   0   0  1  0
  53  0  0   6  24   8  0  0
  54  2  0   0   0   0  0  0
  55  0  1   0   0   1  0  0
  56  1  0   0   0   0  0  0
  57  0  0   2  25   4  0  0
  58  0  0   5   0   0  1  0
  59  0  0   6  26   8  0  0
  60  2  0   0   0   0  0  0
  61  0  1   0   0   1  0  0
  62  1  0   0   0   0  0  0
  63  0  0   2  27   4  0  0
  64  0  0   5   0   0  1  0
  65  0  0   6  28   8  0  0
  66  2  0   0   0   0  0  0
  67  0  1   0   0   1  0  0
  68  1  0   0   0   0  0  0
  69  0  0   2  29   4  0  0
  70  0  0   5   0   0  1  0
  71  0  0   6  30   8  0  0
  72  2  0   0   0   0  0  0
  73  0  1   0   0   1  0  0
  74  1  0   0   0   0  0  0
  75  0  0   2  31   4  0  0
  76  0  0   5   0   0  1  0
  77  0  0   6  32   8  0  0
  78  2  0   0   0   0  0  0
  79  0  1   0   0   1  0  0
  80  1  0   0   0   0  0  0
  81  0  0   2  33   4  0  0
  82  0  0   5   0   0  1  0
  83  0  0   6  34   8  0  0
  84  2  0   0   0   0  0  0
  85  0  1   0   0   1  0  0
  86  1  0   0   0   0  0  0
  87  0  0   2  35   4  0  0
  88  0  0   5   0   0  1  0
  89  0  0   6  36   8  0  0
  90  2  0   0   0   0  0  0
  91  0  1   0   0   1  0  0
  92  1  0   0   0   0  0  0
  93  0  0   2  37   4  0  0
  94  0  0   5   0   0  1  0
  95  0  0   6  38   8  0  0
  96  2  0   0   0   0  0  0
  97  0  1   0   0   1  0  0
  98  1  0   0   0   0  0  0
  99  0  0   2  39   4  0  0
 100  0  0   5   0   0  1  0
 101  0  0   6  40   8  0  0
 102  2  0   0   0   0  0  0
 103  0  1   0   0   1  0  0
 104  1  0   0   0   0  0  0
 105  0  0   2  41   4  0  0
 106  0  0   5   0   0  1  0
 107  0  0   6  42   8  0  0
 108  2  0   0   0   0  0  0
 109  0  1   0   0   1  0  0
 110  1  0   0   0   0  0  0
 111  0  0   2  43   4  0  0
 112  0  0   5   0   0  1  0
 113  0  0   6  44   8  0  0
 114  2  0   0   0   0  0  0
 115  0  1   0   0   1  0  0
 116  1  0   0   0   0  0  0
 117  0  0   2  45   4  0  0
 118  0  0   5   0   0  1  0
 119  0  0   6  46   8  0  0
 120  2  0   0   0   0  0  0
 121  0  1   0   0   1  0  0
 122  1  0   0   0   0  0  0
 123  0  0   2  47   4  0  0
 124  0  0   5   0   0  1  0
 125  0  0   6  48   8  0  0
 126  2  0   0   0   0  0  0
 127  0  1   0   0   1  0  0
 128  1  0   0   0   0  0  0
 129  0  0   2  49   4  0  0
 130  0  0   5   0   0  1  0
 131  0  0   6  50   8  0  0
 132  2  0   0   0   0  0  0
 133  0  1   0   0   1  0  0
 134  1  0   0   0   0  0  0
 135  0  0   2  51   4  0  0
 136  0  0   5   0   0  1  0
 137  0  0   6  52   8  0  0
 138  2  0   0   0   0  0  0
 139  0  1   0   0   1  0  0
 140  1  0   0   0   0  0  0
 141  0  0   2  53   4  0  0
 142  0  0   5   0   0  1  0
 143  0  0   6  54   8  0  0
 144  2  0   0   0   0  0  0
 145  0  1   0   0   1  0  0
 146  1  0   0   0   0  0  0
 147  0  0   2  55   4  0  0
 148  0  0   5   0   0  1  0
 149  0  0   6  56   8  0  0
 150  2  0   0   0   0  0  0
 151  0  1   0   0   1  0  0
 152  1  0   0   0   0  0  0
 153  0  0   2  57   4  0  0
 154  0  0   5   0   0  1  0
 155  0  0   6  58   8  0  0
 156  2  0   0   0   0  0  0
 157  0  1   0   0   1  0  0
 158  1  0   0   0   0  0  0
 159  0  0   2  59   4  0  0
 160  0  0   5   0   0  1  0
 161  0  0   6  60   8  0  0
 162  2  0   0   0   0  0  0
 163  0  1   0   0   1  0  0
 164  1  0   0   0   0  0  0
 165  0  0   2  61   4  0  0
 166  0  0   5   0   0  1  0
 167  0  0   6  62   8  0  0
 168  2  0   0   0   0  0  0
 169  0  1   0   0   1  0  0
 170  1  0   0   0   0  0  0
 171  0  0   2  63   4  0  0
 172  0  0   5   0   0  1  0
 173  0  0   6  64   8  0  0
 174  2  0   0   0   0  0  0
 175  0  1   0   0   1  0  0
 176  1  0   0   0   0  0  0
 177  0  0   2  65   4  0  0
 178  0  0   5   0   0  1  0
 179  0  0   6  66   8  0  0
 180  2  0   0   0   0  0  0
 181  0  1   0   0   1  0  0
 182  1  0   0   0   0  0  0
 183  0  0   2  67   4  0  0
 184  0  0   5   0   0  1  0
 185  0  0   6  68   8  0  0
 186  2  0   0   0   0  0  0
 187  0  1   0   0   1  0  0
 188  1  0   0   0   0  0  0
 189  0  0   2  69   4  0  0
 190  0  0   5   0   0  1  0
 191  0  0   6  70   8  0  0
 192  2  0   0   0   0  0  0
 193  0  1   0   0   1  0  0
 194  1  0   0   0   0  0  0
 195  0  0   2  71   4  0  0
 196  0  0   5   0   0  1  0
 197  0  0   6  72   8  0  0
 198  2  0   0   0   0  0  0
 199  0  1   0   0   1  0  0
 200  1  0   0   0   0  0  0
 201  0  0   2  73   4  0  0
 202  0  0   5   0   0  1  0
 203  0  0   6  74   8  0  0
 204  2  0   0   0   0  0  0
 205  0  1   0   0   1  0  0
 206  1  0   0   0   0  0  0
 207  0  0   2  75   4  0  0
 208  0  0   5   0   0  1  0
 209  0  0   6  76   8  0  0
 210  2  0   0   0   0  0  0
 211  0  1   0   0   1  0  0
 212  1  0   0   0   0  0  0
 213  0  0   2  77   4  0  0
 214  0  0   5   0   0  1  0
 215  0  0   6  78   8  0  0
 216  2  0   0   0   0  0  0
 217  0  1   0   0   1  0  0
 218  1  0   0   0   0  0  0
 219  0  0   2  79   4  0  0
 220  0  0   5   0   0  1  0
 221  0  0   6  80   8  0  0
 222  2  0   0   0   0  0  0
 223  0  1   0   0   1  0  0
 224  1  0   0   0   0  0  0
 225  0  0   2  81   4  0  0
 226  0  0   5   0   0  1  0
 227  0  0   6  82   8  0  0
 228  2  0   0   0   0  0  0
 229  0  1   0   0   1  0  0
 230  1  0   0   0   0  0  0
 231  0  0   2  83   4  0  0
 232  0  0   5   0   0  1  0
 233  0  0   6  84   8  0  0
 234  2  0   0   0   0  0  0
 235  0  1   0   0   1  0  0
 236  1  0   0   0   0  0  0
 237  0  0   2  85   4  0  0
 238  0  0   5   0   0  1  0
 239  0  0   6  86   8  0  0
 240  2  0   0   0   0  0  0
 241  0  1   0   0   1  0  0
 242  1  0   0   0   0  0  0
 243  0  0   2  87   4  0  0
 244  0  0   5   0   0  1  0
 245  0  0   6  88   8  0  0
 246  2  0   0   0   0  0  0
 247  0  1   0   0   1  0  0
 248  1  0   0   0   0  0  0
 249  0  0   2  89   4  0  0
 250  0  0   5   0   0  1  0
 251  0  0   6  90   8  0  0
 252  2  0   0   0   0  0  0
 253  0  1   0   0   1  0  0
 254  1  0   0   0   0  0  0
 255  0  0   2  91   4  0  0
 256  0  0   5   0   0  1  0
 257  0  0   6  92   8  0  0
 258  2  0   0   0   0  0  0
 259  0  1   0   0   1  0  0
 260  1  0   0   0   0  0  0
 261  0  0   2  93   4  0  0
 262  0  0   5   0   0  1  0
 263  0  0   6  94   8  0  0
 264  2  0   0   0   0  0  0
 265  0  1   0   0   1  0  0
 266  1  0   0   0   0  0  0
 267  0  0   2  95   4  0  0
 268  0  0   5   0   0  1  0
 269  0  0   6  96   8  0  0
 270  2  0   0   0   0  0  0
 271  0  1   0   0   1  0  0
 272  1  0   0   0   0  0  0
 273  0  0   2  97   4  0  0
 274  0  0   5   0   0  1  0
 275  0  0   6  98   8  0  0
 276  2  0   0   0   0  0  0
 277  0  1   0   0   1  0  0
 278  1  0   0   0   0  0  0
 279  0  0   2  99   4  0  0
 280  0  0   5   0   0  1  0
 281  0  0   6 100   8  0  0
 282  2  0   0   0   0  0  0
 283  0  1   0   0   1  0  0
 284  1  0   0   0   0  0  0
 285  0  0   2 101   4  0  0
 286  0  0   5   0   0  1  0
 287  0  0   6 102   8  0  0
 288  2  0   0   0   0  0  0
 289  0  1   0   0   1  0  0
 290  1  0   0   0   0  0  0
 291  0  0   2 103   4  0  0
 292  0  0   5   0   0  1  0
 293  0  0   6 104   8  0  0
 294  2  0   0   0   0  0  0
 295  0  1   0   0   1  0  0
 296  1  0   0   0   0  0  0
 297  0  0   2 105   4  0  0
 298  0  0   5   0   0  1  0
 299  0  0   6 106   8  0  0
 300  2  0   0   0   0  0  0
 301  0  1   0   0   1  0  0
 302  1  0   0   0   0  0  0
 303  0  0   2 107   4  0  0
 304  0  0   5   0   0  1  0
 305  0  0   6 108   8  0  0
 306  2  0   0   0   0  0  0
 307  0  1   0   0   1  0  0
 308  1  0   0   0   0  0  0
 309  0  0   2 109   4  0  0
 310  0  0   5   0   0  1  0
 311  0  0   6 110   8  0  0
 312  2  0   0   0   0  0  0
 313  0  1   0   0   1  0  0
 314  1  0   0   0   0  0  0
 315  0  0   2 111   4  0  0
 316  0  0   5   0   0  1  0
 317  0  0   6 112   8  0  0
 318  2  0   0   0   0  0  0
 319  0  1   0   0   1  0  0
 320  1  0   0   0   0  0  0
 321  0  0   2 113   4  0  0
 322  0  0   5   0   0  1  0
 323  0  0   6 114   8  0  0
 324  2  0   0   0   0  0  0
 325  0  1   0   0   1  0  0
 326  1  0   0   0   0  0  0
 327  0  0   2 115   4  0  0
 328  0  0   5   0   0  1  0
 329  0  0   6 116   8  0  0
 330  2  0   0   0   0  0  0
 331  0  1   0   0   1  0  0
 332  1  0   0   0   0  0  0
 333  0  0   2 117   4  0  0
 334  0  0   5   0   0  1  0
 335  0  0   6 118   8  0  0
 336  2  0   0   0   0  0  0
 337  0  1   0   0   1  0  0
 338  1  0   0   0   0  0  0
[RF]
1      78.5675 1 2 0 0

# Format of trapezoid gradients:
# id amplitude rise flat fall
# ..      Hz/m   us   us   us
[TRAP]
 1      339119.6 114 3772 114
 2     -574151.1 114 2772 114
 3     -554401.1 114 2772 114
 4     -228312.3 114 2772 114
 5       1000000 114 3200 114
 6       1148302 114 2772 114
 7      554401.1 114 2772 114
 8      913249.4 114 2772 114
 9     -550069.9 114 2772 114
10      550069.9 114 2772 114
11     -545738.6 114 2772 114
12      545738.6 114 2772 114
13     -541407.3 114 2772 114
14      541407.3 114 2772 114
15     -537076.1 114 2772 114
16      537076.1 114 2772 114
17     -532744.8 114 2772 114
18      532744.8 114 2772 114
19     -528413.6 114 2772 114
20      528413.6 114 2772 114
21     -524082.3 114 2772 114
22      524082.3 114 2772 114
23     -519751.1 114 2772 114
24      519751.1 114 2772 114
25     -515419.8 114 2772 114
26      515419.8 114 2772 114
27     -511088.6 114 2772 114
28      511088.6 114 2772 114
29     -506757.3 114 2772 114
30      506757.3 114 2772 114
31     -502426.1 114 2772 114
32      502426.1 114 2772 114
33     -498094.8 114 2772 114
34      498094.8 114 2772 114
35     -493763.5 114 2772 114
36      493763.5 114 2772 114
37     -489432.3 114 2772 114
38      489432.3 114 2772 114
39       -485101 114 2772 114
40        485101 114 2772 114
41     -480769.8 114 2772 114
42      480769.8 114 2772 114
43     -476438.5 114 2772 114
44      476438.5 114 2772 114
45     -472107.3 114 2772 114
46      472107.3 114 2772 114
47       -467776 114 2772 114
48        467776 114 2772 114
49     -463444.8 114 2772 114
50      463444.8 114 2772 114
51     -459113.5 114 2772 114
52      459113.5 114 2772 114
53     -454782.3 114 2772 114
54      454782.3 114 2772 114
55       -450451 114 2772 114
56        450451 114 2772 114
57     -446119.8 114 2772 114
58      446119.8 114 2772 114
59     -441788.5 114 2772 114
60      441788.5 114 2772 114
61     -437457.2 114 2772 114
62      437457.2 114 2772 114
63       -433126 114 2772 114
64        433126 114 2772 114
65     -428794.7 114 2772 114
66      428794.7 114 2772 114
67     -424463.5 114 2772 114
68      424463.5 114 2772 114
69     -420132.2 114 2772 114
70      420132.2 114 2772 114
71       -415801 114 2772 114
72        415801 114 2772 114
73     -411469.7 114 2772 114
74      411469.7 114 2772 114
75     -407138.5 114 2772 114
76      407138.5 114 2772 114
77     -402807.2 114 2772 114
78      402807.2 114 2772 114
79       -398476 114 2772 114
80        398476 114 2772 114
81     -394144.7 114 2772 114
82      394144.7 114 2772 114
83     -389813.4 114 2772 114
84      389813.4 114 2772 114
85     -385482.2 114 2772 114
86      385482.2 114 2772 114
87     -381150.9 114 2772 114
88      381150.9 114 2772 114
89     -376819.7 114 2772 114
90      376819.7 114 2772 114
91     -372488.4 114 2772 114
92      372488.4 114 2772 114
93     -368157.2 114 2772 114
94      368157.2 114 2772 114
95     -363825.9 114 2772 114
96      363825.9 114 2772 114
97     -359494.7 114 2772 114
98      359494.7 114 2772 114
99     -355163.4 114 2772 114
100      355163.4 114 2772 114
101     -350832.2 114 2772 114
102      350832.2 114 2772 114
103     -346500.9 114 2772 114
104      346500.9 114 2772 114
105     -342169.6 114 2772 114
106      342169.6 114 2772 114
107     -337838.4 114 2772 114
108      337838.4 114 2772 114
109     -333507.1 114 2772 114
110      333507.1 114 2772 114
111     -329175.9 114 2772 114
112      329175.9 114 2772 114
113     -324844.6 114 2772 114
114      324844.6 114 2772 114
115     -320513.4 114 2772 114
116      320513.4 114 2772 114
117     -316182.1 114 2772 114
118      316182.1 114 2772 114
119     -311850.9 114 2772 114
120      311850.9 114 2772 114
121     -307519.6 114 2772 114
122      307519.6 114 2772 114
123     -303188.4 114 2772 114
124      303188.4 114 2772 114
125     -298857.1 114 2772 114
126      298857.1 114 2772 114
127     -294525.8 114 2772 114
128      294525.8 114 2772 114
129     -290194.6 114 2772 114
130      290194.6 114 2772 114
131     -285863.3 114 2772 114
132      285863.3 114 2772 114
133     -281532.1 114 2772 114
134      281532.1 114 2772 114
135     -277200.8 114 2772 114
136      277200.8 114 2772 114
137     -272869.6 114 2772 114
138      272869.6 114 2772 114
139     -268538.3 114 2772 114
140      268538.3 114 2772 114
141     -264207.1 114 2772 114
142      264207.1 114 2772 114
143     -259875.8 114 2772 114
144      259875.8 114 2772 114
145     -255544.6 114 2772 114
146      255544.6 114 2772 114
147     -251213.3 114 2772 114
148      251213.3 114 2772 114
149     -246882.1 114 2772 114
150      246882.1 114 2772 114
151     -242550.8 114 2772 114
152      242550.8 114 2772 114
153     -238219.5 114 2772 114
154      238219.5 114 2772 114
155     -233888.3 114 2772 114
156      233888.3 114 2772 114
157       -229557 114 2772 114
158        229557 114 2772 114
159     -225225.8 114 2772 114
160      225225.8 114 2772 114
161     -220894.5 114 2772 114
162      220894.5 114 2772 114
163     -216563.3 114 2772 114
164      216563.3 114 2772 114
165       -212232 114 2772 114
166        212232 114 2772 114
167     -207900.8 114 2772 114
168      207900.8 114 2772 114
169     -203569.5 114 2772 114
170      203569.5 114 2772 114
171     -199238.3 114 2772 114
172      199238.3 114 2772 114
173       -194907 114 2772 114
174        194907 114 2772 114
175     -190575.7 114 2772 114
176      190575.7 114 2772 114
177     -186244.5 114 2772 114
178      186244.5 114 2772 114
179     -181913.2 114 2772 114
180      181913.2 114 2772 114
181       -177582 114 2772 114
182        177582 114 2772 114
183     -173250.7 114 2772 114
184      173250.7 114 2772 114
185     -168919.5 114 2772 114
186      168919.5 114 2772 114
187     -164588.2 114 2772 114
188      164588.2 114 2772 114
189       -160257 114 2772 114
190        160257 114 2772 114
191     -155925.7 114 2772 114
192      155925.7 114 2772 114
193     -151594.5 114 2772 114
194      151594.5 114 2772 114
195     -147263.2 114 2772 114
196      147263.2 114 2772 114
197     -142931.9 114 2772 114
198      142931.9 114 2772 114
199     -138600.7 114 2772 114
200      138600.7 114 2772 114
201     -134269.4 114 2772 114
202      134269.4 114 2772 114
203     -129938.2 114 2772 114
204      129938.2 114 2772 114
205     -125606.9 114 2772 114
206      125606.9 114 2772 114
207     -121275.7 114 2772 114
208      121275.7 114 2772 114
209     -116944.4 114 2772 114
210      116944.4 114 2772 114
211     -112613.2 114 2772 114
212      112613.2 114 2772 114
213     -108281.9 114 2772 114
214      108281.9 114 2772 114
215     -103950.7 114 2772 114
216      103950.7 114 2772 114
217      -99619.4 114 2772 114
218       99619.4 114 2772 114
219     -95288.15 114 2772 114
220      95288.15 114 2772 114
221      -90956.9 114 2772 114
222       90956.9 114 2772 114
223     -86625.64 114 2772 114
224      86625.64 114 2772 114
225     -82294.39 114 2772 114
226      82294.39 114 2772 114
227     -77963.13 114 2772 114
228      77963.13 114 2772 114
229     -73631.88 114 2772 114
230      73631.88 114 2772 114
231     -69300.62 114 2772 114
232      69300.62 114 2772 114
233     -64969.37 114 2772 114
234      64969.37 114 2772 114
235     -60638.12 114 2772 114
236      60638.12 114 2772 114
237     -56306.86 114 2772 114
238      56306.86 114 2772 114
239     -51975.61 114 2772 114
240      51975.61 114 2772 114
241     -47644.35 114 2772 114
242      47644.35 114 2772 114
243      -43313.1 114 2772 114
244       43313.1 114 2772 114
245     -38981.84 114 2772 114
246      38981.84 114 2772 114
247     -34650.59 114 2772 114
248      34650.59 114 2772 114
249     -30319.33 114 2772 114
250      30319.33 114 2772 114
251     -25988.08 114 2772 114
252      25988.08 114 2772 114
253     -21656.83 114 2772 114
254      21656.83 114 2772 114
255     -17325.57 114 2772 114
256      17325.57 114 2772 114
257     -12994.32 114 2772 114
258      12994.32 114 2772 114
259     -8663.063 114 2772 114
260      8663.063 114 2772 114
261     -4331.809 114 2772 114
262      4331.809 114 2772 114
263    -0.5544006 114 2772 114
264     0.5544006 114 2772 114
265        4330.7 114 2772 114
266       -4330.7 114 2772 114
267      8661.954 114 2772 114
268     -8661.954 114 2772 114
269      12993.21 114 2772 114
270     -12993.21 114 2772 114
271      17324.46 114 2772 114
272     -17324.46 114 2772 114
273      21655.72 114 2772 114
274     -21655.72 114 2772 114
275      25986.97 114 2772 114
276     -25986.97 114 2772 114
277      30318.23 114 2772 114
278     -30318.23 114 2772 114
279      34649.48 114 2772 114
280     -34649.48 114 2772 114
281      38980.73 114 2772 114
282     -38980.73 114 2772 114
283      43311.99 114 2772 114
284     -43311.99 114 2772 114
285      47643.24 114 2772 114
286     -47643.24 114 2772 114
287       51974.5 114 2772 114
288      -51974.5 114 2772 114
289      56305.75 114 2772 114
290     -56305.75 114 2772 114
291      60637.01 114 2772 114
292     -60637.01 114 2772 114
293      64968.26 114 2772 114
294     -64968.26 114 2772 114
295      69299.51 114 2772 114
296     -69299.51 114 2772 114
297      73630.77 114 2772 114
298     -73630.77 114 2772 114
299      77962.02 114 2772 114
300     -77962.02 114 2772 114
301      82293.28 114 2772 114
302     -82293.28 114 2772 114
303      86624.53 114 2772 114
304     -86624.53 114 2772 114
305      90955.79 114 2772 114
306     -90955.79 114 2772 114
307      95287.04 114 2772 114
308     -95287.04 114 2772 114
309       99618.3 114 2772 114
310      -99618.3 114 2772 114
311      103949.5 114 2772 114
312     -103949.5 114 2772 114
313      108280.8 114 2772 114
314     -108280.8 114 2772 114
315      112612.1 114 2772 114
316     -112612.1 114 2772 114
317      116943.3 114 2772 114
318     -116943.3 114 2772 114
319      121274.6 114 2772 114
320     -121274.6 114 2772 114
321      125605.8 114 2772 114
322     -125605.8 114 2772 114
323      129937.1 114 2772 114
324     -129937.1 114 2772 114
325      134268.3 114 2772 114
326     -134268.3 114 2772 114
327      138599.6 114 2772 114
328     -138599.6 114 2772 114
329      142930.8 114 2772 114
330     -142930.8 114 2772 114
331      147262.1 114 2772 114
332     -147262.1 114 2772 114
333      151593.3 114 2772 114
334     -151593.3 114 2772 114
335      155924.6 114 2772 114
336     -155924.6 114 2772 114
337      160255.9 114 2772 114
338     -160255.9 114 2772 114
339      164587.1 114 2772 114
340     -164587.1 114 2772 114
341      168918.4 114 2772 114
342     -168918.4 114 2772 114
343      173249.6 114 2772 114
344     -173249.6 114 2772 114
345      177580.9 114 2772 114
346     -177580.9 114 2772 114
347      181912.1 114 2772 114
348     -181912.1 114 2772 114
349      186243.4 114 2772 114
350     -186243.4 114 2772 114
351      190574.6 114 2772 114
352     -190574.6 114 2772 114
353      194905.9 114 2772 114
354     -194905.9 114 2772 114
355      199237.1 114 2772 114
356     -199237.1 114 2772 114
357      203568.4 114 2772 114
358     -203568.4 114 2772 114
359      207899.7 114 2772 114
360     -207899.7 114 2772 114
361      212230.9 114 2772 114
362     -212230.9 114 2772 114
363      216562.2 114 2772 114
364     -216562.2 114 2772 114
365      220893.4 114 2772 114
366     -220893.4 114 2772 114
367      225224.7 114 2772 114
368     -225224.7 114 2772 114
369      229555.9 114 2772 114
370     -229555.9 114 2772 114
371      233887.2 114 2772 114
372     -233887.2 114 2772 114
373      238218.4 114 2772 114
374     -238218.4 114 2772 114
375      242549.7 114 2772 114
376     -242549.7 114 2772 114
377      246880.9 114 2772 114
378     -246880.9 114 2772 114
379      251212.2 114 2772 114
380     -251212.2 114 2772 114
381      255543.5 114 2772 114
382     -255543.5 114 2772 114
383      259874.7 114 2772 114
384     -259874.7 114 2772 114
385        264206 114 2772 114
386       -264206 114 2772 114
387      268537.2 114 2772 114
388     -268537.2 114 2772 114
389      272868.5 114 2772 114
390     -272868.5 114 2772 114
391      277199.7 114 2772 114
392     -277199.7 114 2772 114
393        281531 114 2772 114
394       -281531 114 2772 114
395      285862.2 114 2772 114
396     -285862.2 114 2772 114
397      290193.5 114 2772 114
398     -290193.5 114 2772 114
399      294524.7 114 2772 114
400     -294524.7 114 2772 114
401        298856 114 2772 114
402       -298856 114 2772 114
403      303187.2 114 2772 114
404     -303187.2 114 2772 114
405      307518.5 114 2772 114
406     -307518.5 114 2772 114
407      311849.8 114 2772 114
408     -311849.8 114 2772 114
409        316181 114 2772 114
410       -316181 114 2772 114
411      320512.3 114 2772 114
412     -320512.3 114 2772 114
413      324843.5 114 2772 114
414     -324843.5 114 2772 114
415      329174.8 114 2772 114
416     -329174.8 114 2772 114
417        333506 114 2772 114
418       -333506 114 2772 114
419      337837.3 114 2772 114
420     -337837.3 114 2772 114
421      342168.5 114 2772 114
422     -342168.5 114 2772 114
423      346499.8 114 2772 114
424     -346499.8 114 2772 114
425        350831 114 2772 114
426       -350831 114 2772 114
427      355162.3 114 2772 114
428     -355162.3 114 2772 114
429      359493.6 114 2772 114
430     -359493.6 114 2772 114
431      363824.8 114 2772 114
432     -363824.8 114 2772 114
433      368156.1 114 2772 114
434     -368156.1 114 2772 114
435      372487.3 114 2772 114
436     -372487.3 114 2772 114
437      376818.6 114 2772 114
438     -376818.6 114 2772 114
439      381149.8 114 2772 114
440     -381149.8 114 2772 114
441      385481.1 114 2772 114
442     -385481.1 114 2772 114
443      389812.3 114 2772 114
444     -389812.3 114 2772 114
445      394143.6 114 2772 114
446     -394143.6 114 2772 114
447      398474.8 114 2772 114
448     -398474.8 114 2772 114
449      402806.1 114 2772 114
450     -402806.1 114 2772 114
451      407137.4 114 2772 114
452     -407137.4 114 2772 114
453      411468.6 114 2772 114
454     -411468.6 114 2772 114
455      415799.9 114 2772 114
456     -415799.9 114 2772 114
457      420131.1 114 2772 114
458     -420131.1 114 2772 114
459      424462.4 114 2772 114
460     -424462.4 114 2772 114
461      428793.6 114 2772 114
462     -428793.6 114 2772 114
463      433124.9 114 2772 114
464     -433124.9 114 2772 114
465      437456.1 114 2772 114
466     -437456.1 114 2772 114
467      441787.4 114 2772 114
468     -441787.4 114 2772 114
469      446118.6 114 2772 114
470     -446118.6 114 2772 114
471      450449.9 114 2772 114
472     -450449.9 114 2772 114
473      454781.2 114 2772 114
474     -454781.2 114 2772 114
475      459112.4 114 2772 114
476     -459112.4 114 2772 114
477      463443.7 114 2772 114
478     -463443.7 114 2772 114
479      467774.9 114 2772 114
480     -467774.9 114 2772 114
481      472106.2 114 2772 114
482     -472106.2 114 2772 114
483      476437.4 114 2772 114
484     -476437.4 114 2772 114
485      480768.7 114 2772 114
486     -480768.7 114 2772 114
487      485099.9 114 2772 114
488     -485099.9 114 2772 114
489      489431.2 114 2772 114
490     -489431.2 114 2772 114
491      493762.4 114 2772 114
492     -493762.4 114 2772 114
493      498093.7 114 2772 114
494     -498093.7 114 2772 114
495      502424.9 114 2772 114
496     -502424.9 114 2772 114
497      506756.2 114 2772 114
498     -506756.2 114 2772 114
499      511087.5 114 2772 114
500     -511087.5 114 2772 114
501      515418.7 114 2772 114
502     -515418.7 114 2772 114
503        519750 114 2772 114
504       -519750 114 2772 114
505      524081.2 114 2772 114
506     -524081.2 114 2772 114
507      528412.5 114 2772 114
508     -528412.5 114 2772 114
509      532743.7 114 2772 114
510     -532743.7 114 2772 114
511        537075 114 2772 114
512       -537075 114 2772 114
513      541406.2 114 2772 114
514     -541406.2 114 2772 114
515      545737.5 114 2772 114
516     -545737.5 114 2772 114
517      550068.7 114 2772 114
518     -550068.7 114 2772 114

# Format of ADC events:
# id num dwell delay freq phase
# ..  ..    ns    us   Hz   rad
[ADC]
 1 256  12500 114 0 0

# Format of delays:
# id delay (us)
[DELAYS]
1 290
2 86280

# Sequence Shapes

[SHAPES]

shape_id 1
num_samples 4000
1.23139e-11
1.23139e-11
259
1.348074e-10
1.348074e-10
28
2.532991e-10
2.532991e-10
18
3.832164e-10
3.832164e-10
18
5.767803e-10
5.767803e-10
8
7.062389e-10
7.062389e-10
8
8.636371e-10
8.636371e-10
8
1.054749e-09
1.054749e-09
8
1.286486e-09
1.286486e-09
8
1.567108e-09
1.567108e-09
8
1.906472e-09
1.906472e-09
8
2.316324e-09
2.316324e-09
8
2.810641e-09
2.810641e-09
8
3.40603e-09
3.40603e-09
8
4.122193e-09
4.122193e-09
8
4.982471e-09
4.982471e-09
8
6.014473e-09
6.014473e-09
8
7.250809e-09
7.250809e-09
8
8.729939e-09
8.729939e-09
8
1.049715e-08
1.049715e-08
8
1.260571e-08
1.260571e-08
8
1.511813e-08
1.511813e-08
8
1.810772e-08
1.810772e-08
8
2.166028e-08
2.166028e-08
8
2.587609e-08
2.587609e-08
8
3.087219e-08
3.087219e-08
8
3.678492e-08
3.678492e-08
8
4.377295e-08
4.377295e-08
8
5.202055e-08
5.202055e-08
8
6.174147e-08
6.174147e-08
8
7.318324e-08
7.318324e-08
8
8.663204e-08
8.663204e-08
8
1.024183e-07
1.024183e-07
8
1.209227e-07
1.209227e-07
8
1.425837e-07
1.425837e-07
8
1.679046e-07
1.679046e-07
8
1.974632e-07
1.974632e-07
8
2.319209e-07
2.319209e-07
8
2.720342e-07
2.720342e-07
8
3.186668e-07
3.186668e-07
8
3.728028e-07
3.728028e-07
8
4.355623e-07
4.355623e-07
8
5.082178e-07
5.082178e-07
8
5.922123e-07
5.922123e-07
8
6.891797e-07
6.891797e-07
8
8.009672e-07
8.009672e-07
8
9.29659e-07
9.29659e-07
8
1.077603e-06
1.077603e-06
8
1.247441e-06
1.247441e-06
8
1.442136e-06
1.442136e-06
8
1.665012e-06
1.665012e-06
8
1.919787e-06
1.919787e-06
8
2.210612e-06
2.210612e-06
8
2.542116e-06
2.542116e-06
8
2.919449e-06
2.919449e-06
8
3.348334e-06
3.348334e-06
8
3.835115e-06
3.835115e-06
8
4.386813e-06
4.386813e-06
8
5.011185e-06
5.011185e-06
8
5.716784e-06
5.716784e-06
8
6.513019e-06
6.513019e-06
8
7.41023e-06
7.41023e-06
8
8.419747e-06
8.419747e-06
8
9.553968e-06
9.553968e-06
8
1.082643e-05
1.082643e-05
8
1.225188e-05
1.225188e-05
8
1.384635e-05
1.384635e-05
8
1.562725e-05
1.562725e-05
8
1.76134e-05
1.76134e-05
8
1.982518e-05
1.982518e-05
8
2.22845e-05
2.22845e-05
8
2.501498e-05
2.501498e-05
8
2.804192e-05
2.804192e-05
8
3.139241e-05
3.139241e-05
8
3.509541e-05
3.509541e-05
8
3.918173e-05
3.918173e-05
8
4.36841e-05
4.36841e-05
8
4.863724e-05
4.863724e-05
8
5.407779e-05
5.407779e-05
8
6.00444e-05
6.00444e-05
8
6.657764e-05
6.657764e-05
8
7.372003e-05
7.372003e-05
8
8.151596e-05
8.151596e-05
8
9.001163e-05
9.001163e-05
8
9.925492e-05
9.925492e-05
8
0.0001092954
0.0001092954
8
0.0001201839
0.0001201839
8
0.0001319727
0.0001319727
8
0.0001447151
0.0001447151
8
0.0001584652
0.0001584652
8
0.0001732779
0.0001732779
8
0.0001892079
0.0001892079
8
0.0002063104
0.0002063104
8
0.0002246397
0.0002246397
8
0.0002442496
0.0002442496
8
0.0002651925
0.0002651925
8
0.0002875191
0.0002875191
8
0.0003112777
0.0003112777
8
0.0003365139
0.0003365139
8
0.0003632702
0.0003632702
8
0.0003915846
0.0003915846
8
0.000421491
0.000421491
8
0.0004530178
0.0004530178
8
0.0004861875
0.0004861875
8
0.0005210161
0.0005210161
8
0.0005575123
0.0005575123
8
0.0005956768
0.0005956768
8
0.0006355016
0.0006355016
8
0.0006769694
0.0006769694
8
0.0007200528
0.0007200528
8
0.0007647138
0.0007647138
8
0.0008109031
0.0008109031
8
0.0008585595
0.0008585595
8
0.0009076094
0.0009076094
8
0.0009579664
0.0009579664
8
0.001009531
0.001009531
8
0.001062189
0.001062189
8
0.001115815
0.001115815
8
0.001170265
0.001170265
8
0.001225387
0.001225387
8
0.001281009
0.001281009
8
0.001336949
0.001336949
8
0.00139301
0.00139301
8
0.001448981
0.001448981
8
0.00150464
0.00150464
8
0.001559752
0.001559752
8
0.00161407
0.00161407
8
0.001667338
0.001667338
8
0.001719291
0.001719291
8
0.001769653
0.001769653
8
0.001818144
0.001818144
8
0.001864479
0.001864479
8
0.001908366
0.001908366
8
